"x" "Density" "Velocity" "TotalEnergy" "Temperature" "O2" "H2O" "H" "O" "OH" "H2" "HO2" "H2O2" "AR"
0 0.169488 -815.421 105480.63 2841.07 0.012133367 0.084632125 0.00050510455 0.0032528445 0.01150034 0.0021153745 2.2518465e-06 1.5574113e-07 0.88585844
0.0044811 0.169488 -815.421 105480.63 2841.07 0.012133367 0.084632125 0.00050510455 0.0032528445 0.01150034 0.0021153745 2.2518465e-06 1.5574113e-07 0.88585844
0.0089996 0.17087 -808.827 106398.92 2838.25 0.012250219 0.084344469 0.00051560176 0.0033191554 0.011577267 0.0021325129 2.254906e-06 1.6052145e-07 0.88585836
0.0113779 0.171756 -804.652 106994.88 2836.25 0.012326586 0.084157699 0.00052252167 0.0033626833 0.011625977 0.0021435851 2.256204e-06 1.6385855e-07 0.88585853
0.0155634 0.173668 -795.793 108300.31 2831.48 0.012494461 0.083751201 0.00053791166 0.0034590412 0.011729113 0.0021676067 2.25734e-06 1.710471e-07 0.88585824
0.0195701 0.176061 -784.975 109972.77 2824.66 0.012710187 0.083234553 0.00055804481 0.0035841641 0.011854219 0.0021978352 2.2559367e-06 1.8096299e-07 0.88585856
0.0227908 0.178546 -774.051 111751.84 2816.68 0.012939604 0.082692484 0.00057991509 0.0037189791 0.011978828 0.0022292486 2.2516801e-06 1.9219521e-07 0.8858585
0.0253834 0.181049 -763.35 113585.88 2807.8 0.013175425 0.082142185 0.0006028882 0.0038594389 0.012098434 0.0022607774 2.2451321e-06 2.0451639e-07 0.8858584
0.0268536 0.182729 -756.333 114838.61 2801.4 0.013335748 0.081771562 0.00061880065 0.0039560806 0.012175137 0.00228179 2.2397442e-06 2.1337143e-07 0.88585843
0.0275222 0.183568 -752.877 115472.59 2798.09 0.013416459 0.081586262 0.00062689334 0.0040050268 0.012212342 0.0022922291 2.2368315e-06 2.1796618e-07 0.88585833
0.0294624 0.18632 -741.757 117576.59 2786.68 0.013683153 0.080978456 0.00065409068 0.0041685271 0.012328921 0.0023261504 2.2265282e-06 2.3397397e-07 0.88585824
0.0317435 0.190321 -726.162 120716.33 2768.8 0.014075463 0.080097649 0.00069529488 0.0044134589 0.012482981 0.002374377 2.2106688e-06 2.5978923e-07 0.88585831
0.033547 0.19429 -711.329 123920.67 2749.77 0.014468046 0.079231788 0.00073793606 0.0046635302 0.012617097 0.0024206501 2.1957248e-06 2.8861478e-07 0.88585847
0.0351179 0.198561 -696.027 127458.06 2728.08 0.014892231 0.078313976 0.00078559793 0.0049390288 0.012740006 0.0024684267 2.1824731e-06 3.2355329e-07 0.88585823
0.0359795 0.201333 -686.443 129801.63 2713.44 0.015167711 0.077727258 0.00081742159 0.0051206489 0.0128078 0.0024982223 2.1762779e-06 3.4858716e-07 0.88585841
0.03644005 0.202971 -680.905 131203.82 2704.61 0.015330243 0.077384678 0.00083652074 0.0052287482 0.01284343 0.0025153438 2.1737005e-06 3.6431513e-07 0.8858585
0.03714482 0.205726 -671.785 133589.45 2689.49 0.015603436 0.076815169 0.00086913162 0.0054118305 0.012896068 0.0025433441 2.1714368e-06 3.9230052e-07 0.88585846
0.03833601 0.211246 -654.234 138469.54 2658.37 0.016147991 0.075702798 0.00093605395 0.0057815425 0.012974275 0.002596262 2.1755086e-06 4.5528906e-07 0.88585845
0.03926561 0.216573 -638.14 143295.2 2627.51 0.016669222 0.074667153 0.001002418 0.0061402617 0.013016383 0.0026432717 2.1916144e-06 5.2536677e-07 0.88585857
0.04004326 0.222011 -622.511 148332.31 2595.45 0.017195602 0.073651167 0.0010716376 0.0065061117 0.013027176 0.0026871173 2.2210904e-06 6.0759605e-07 0.88585836
0.04051514 0.225904 -611.781 152003.24 2572.26 0.01756865 0.072949026 0.0011219727 0.0067667917 0.013016069 0.0027159808 2.2504447e-06 6.7388637e-07 0.88585859
0.04069424 0.22753 -607.41 153550.26 2562.54 0.017723395 0.072662447 0.001143148 0.0068751072 0.013007032 0.0027274189 2.2647216e-06 7.0373215e-07 0.88585848
0.04104438 0.230989 -598.314 156871.4 2541.81 0.018050506 0.07206525 0.0011884878 0.0071043825 0.012979327 0.0027505521 2.2990151e-06 7.6989845e-07 0.88585843
0.04169239 0.238642 -579.126 164347.59 2495.86 0.018764461 0.070803178 0.0012899359 0.0076040843 0.012880266 0.0027961681 2.3933218e-06 9.418127e-07 0.88585857
0.04216486 0.245664 -562.574 171354 2453.86 0.019407159 0.069716544 0.0013839955 0.0080509801 0.012747801 0.0028315639 2.500906e-06 1.1294005e-06 0.88585833
0.04253842 0.252494 -547.356 178288.63 2413.33 0.020021844 0.068721175 0.0014760198 0.008472651 0.012585227 0.002860518 2.6234823e-06 1.3448397e-06 0.8858586
0.04268645 0.255624 -540.654 181504.76 2394.91 0.020300858 0.068284311 0.0015182712 0.0086610269 0.012500729 0.0028721599 2.6852448e-06 1.4558824e-06 0.8858585
0.04276433 0.257389 -536.946 183329.99 2384.58 0.020457678 0.068042726 0.0015420991 0.0087657585 0.012450486 0.0028783197 2.7215905e-06 1.5219294e-06 0.88585869
0.04282642 0.258862 -533.892 184856.31 2375.98 0.020588401 0.067844155 0.0015619688 0.0088522257 0.012407148 0.0028832634 2.7526294e-06 1.5689776e-06 0.88585852
0.04305797 0.264947 -521.629 191215.26 2340.76 0.02113141 0.067043631 0.0016438494 0.0092000343 0.012215388 0.0029022813 2.8896177e-06 1.8402543e-06 0.88585868
0.04326515 0.271385 -509.255 198025.07 2304.07 0.021726699 0.066220325 0.0017294733 0.0095466867 0.011991105 0.0029220888 3.0500072e-06 2.1536406e-06 0.88585842
0.0434671 0.278891 -495.549 206065.17 2262.11 0.022504154 0.065241705 0.0018260195 0.0099085218 0.011702982 0.0029520601 3.2640661e-06 2.5835322e-06 0.88585871
0.04366323 0.287794 -480.218 215727.64 2213.58 0.023711224 0.063913639 0.0019301067 0.010236888 0.011323899 0.0030190367 3.5773968e-06 3.1856215e-06 0.88585844
0.04381374 0.296104 -466.742 224866.01 2169.6 0.025401136 0.062266773 0.0020067329 0.010378589 0.010930334 0.003149941 3.968613e-06 3.8440607e-06 0.88585868
0.04394254 0.30452 -453.841 234219.27 2126.39 0.028066419 0.059856726 0.0020489104 0.010278365 0.010477642 0.0034042303 4.5196336e-06 4.5914876e-06 0.8858586
0.04405232 0.312746 -441.905 243455.91 2085.54 0.03207045 0.056379396 0.0020367264 0.0098660591 0.0099410643 0.0038372866 5.2735094e-06 5.3252517e-06 0.88585842
0.04413947 0.31985 -432.09 251501.05 2051.38 0.037095694 0.052108856 0.001965305 0.0092014124 0.0093358771 0.004422399 6.1447747e-06 5.8015685e-06 0.88585851
0.04420089 0.324979 -425.27 257346.64 2027.38 0.04194203 0.048043478 0.0018661291 0.0085075654 0.0087587396 0.0050106587 6.9241794e-06 5.8935751e-06 0.88585858
0.04423595 0.327865 -421.527 260650.49 2014.13 0.045244998 0.045294244 0.0017878579 0.0080235612 0.008357293 0.0054203622 7.4237633e-06 5.7849718e-06 0.88585847
0.04425683 0.329545 -419.378 262577.36 2006.5 0.047396597 0.043511153 0.0017333983 0.0077062545 0.008090644 0.0056901637 7.7356787e-06 5.6509559e-06 0.8858584
0.04428055 0.331401 -417.029 264707.99 1998.14 0.049999101 0.04136173 0.001664503 0.0073215846 0.0077619516 0.0060190569 8.0885752e-06 5.4316794e-06 0.88585855
0.04436299 0.337218 -409.835 271413.47 1972.47 0.060091384 0.033092893 0.0013740215 0.0058344176 0.0064209989 0.0073143189 9.3620657e-06 4.1696692e-06 0.88585843
0.04443507 0.341231 -405.015 276059.79 1955.26 0.069474187 0.025482543 0.0010810539 0.0044700192 0.00508223 0.0085383265 1.0333753e-05 2.7580579e-06 0.88585855
0.04450642 0.344131 -401.603 279423.29 1943.11 0.078166535 0.018485318 0.00079668108 0.0032260746 0.0037709163 0.0096834379 1.104317e-05 1.5537068e-06 0.88585844
0.04459191 0.346403 -398.969 282067.8 1933.8 0.086641604 0.011702507 0.00051082389 0.0020320747 0.0024346997 0.01080757 1.1599348e-05 6.5668539e-07 0.88585847
0.0446894 0.347878 -397.278 283785.03 1927.87 0.093224677 0.0064562285 0.00028431946 0.0011170811 0.001362374 0.011684689 1.1949313e-05 2.1580385e-07 0.88585847
0.0448113 0.348769 -396.262 284826.07 1924.34 0.097742758 0.0028653271 0.00012703475 0.0004951824 0.00061078163 0.01228835 1.2036201e-05 5.7293083e-08 0.88585847
0.04494029 0.34916 -395.818 285280.58 1922.8 0.09989132 0.0011613694 5.1796637e-05 0.00020118283 0.00024920502 0.012575726 1.0960684e-05 2.2408814e-08 0.88585842
0.045059275 0.349305 -395.655 285448.8 1922.23 0.10073394 0.00049487102 2.2230333e-05 8.6215942e-05 0.00010686256 0.012688359 9.0912581e-06 1.4164688e-08 0.88585842
0.045197225 0.349368 -395.582 285522.09 1921.98 0.101132 0.00018107615 8.2550062e-06 3.1975167e-05 3.9613356e-05 0.01274153 7.067415e-06 1.0184418e-08 0.88585847
0.045329451 0.349389 -395.559 285546.88 1921.9 0.101277 6.7599178e-05 3.1718352e-06 1.2261587e-05 1.5179264e-05 0.01276077 5.5831345e-06 7.878858e-09 0.88585843
0.045472772 0.349395 -395.552 285555.14 1921.88 0.1013358 2.2155101e-05 1.1115311e-06 4.2739431e-06 5.2854864e-06 0.012768563 4.2918245e-06 5.9219589e-09 0.88585851
